19142
19172
19205
19260
19337
19418
19502
19582
19582
19590
19617
19675
19715
19796
19834
19980
20003
19960
19928
19935
19955
19974
20020
20060
20118
20154
20143
20060
20022
20002
19952
19954
19975
20031
20054
20077
19943
19797
19728
19662
19605
19608
19586
19589
19567
19115
19048
18993
18975
19005
19007
19035
18956
18639
18467
18452
18439
18441
18439
18453
18496
18439
18441
18439
19390
19969
19757
19546
19341
19150
19021
19000
19015
19008
19003
19011
18956
18837
18778
18722
18581
18577
18582
19395
19445
19470
19586
19833
20105
20150
20372
20553
20601
20544
20487
20481
20566
20674
20756
20751
20676
20665
20653
20698
20640
20597
20518
20561
20600
20641
20667
20666
20614
20461
20379
20411
20447
20474
20539
20538
20390
20262
20201
20195
20184
20200
20245
20224
20019
19824
19764
19740
19759
19818
19868
19781
19510
19387
19352
19337
19344
19371
19440
19206
19204
19016
18933
18948
18979
19012
19069
19162
19263
19350
19268
19136
19120
19143
19168
19208
19289
19364
19437
19404
19279
19248
19283
19320
19357
19479
19509
19357
19291
19291
19318
19345
19391
19454
19533
19495
19346
19254
19246
19235
19278
19345
19398
19481
19523
19369
19226
19162
19144
19127
19166
19219
19275
19347
19403
19098
19032
19031
19014
19231
18957
18937
18961
18954
19024
19101
19182
19265
19345
19368
19228
19157
19155
19171
19182
19235
19306
19373
19459
19475
19343
19269
19270
19286
19304
19352
19412
19483
19564
19636
19418
19358
19362
19359
19377
19436
19486
19551
19617
19667
19528
19417
19345
19334
19335
19345
19403
19468
19504
19530
19364
19272
19230
19213
19209
19222
19284
19344
19361
18418
18456
18504
18566
18667
18759
18818
18664
18541
18505
18531
18560
18616
18685
18767
18874
18970
18949
18817
18758
18761
18784
18810
18877
18960
19056
19144
19075
18988
18956
18988
19072
19133
19229
19313
19330
19200
19125
19131
19163
19189
19252
19315
19424
19479
19559
19475
19384
19329
19352
19340
19360
19435
19478
19528
19608
19653
19543
19439
19403
19048
19102
19135
18935
18782
18730
18702
18725
18801
18849
18912
18947
18725
18577
18537
18551
18567
18621
18691
18768
18851
18946
18873
18687
18581
18569
18595
18597
18664
18755
18830
18912
19007
19047
18892
18789
18791
18801
18856
18913
19000
19070
19148
19046
18919
18892
18905
18916
18945
19019
19100
19173
19265
19321
19167
19073
19045
19062
19060
19104
19119
18969
18910
18898
18859
18880
18947
19000
19045
19074
18843
18732
18696
18680
18676
18719
18769
18840
18899
18941
18743
18613
18601
18616
18632
18666
18731
18815
18892
18977
18838
18671
18615
18638
18622
18662
18743
18798
18974
19068
18973
18830
18761
18772
18793
18808
18880
18960
19038
19123
19209
19170
19039
18993
19014
19017
19032
19103
19171
19259
19369
19422
19462
19447
19249
19162
19121
19113
19122
19175
19220
19282
19311
19108
18944
18875
18859
18838
18833
18879
18930
19002
19057
19098
18867
18697
18615
18604
18595
18613
18650
18713
18792
18861
18932
18792
18555
18568
18557
18580
18629
18716
18786
18859
18813
18626
18554
18553
18580
18592
18652
18741
18815
18894
18869
18676
18602
18601
18599
18641
19009
19015
19016
19039
19094
19164
19229
19302
19215
19055
19024
19011
19005
19021
19071
19128
19183
19232
19105
18954
18905
18916
18923
18942
18997
19055
19125
19207
19099
18933
18849
18846
18864
18919
18989
19063
19134
19203
19043
18921
18871
18890
18901
18935
19011
19084
19159
19240
19116
19001
18971
18996
19002
19059
19122
19191
19297
19360
19397
19236
19407
19330
19318
19298
19293
19331
19387
19436
19484
19550
19499
19283
19191
19149
19113
19104
19126
19178
19210
19275
19314
19140
18980
18922
18907
18890
18900
18949
18995
19115
18991
18764
18662
18647
18617
18619
18661
18717
18797
18849
18923
18774
18559
18457
18452
18434
18462
18508
18577
18660
18748
18810
18668
18520
18474
18498
18502
18535
18609
18769
19544
19624
19586
19512
19498
19521
19553
19576
19630
19694
19778
19850
19810
19698
19636
19638
19609
19643
19663
19712
19771
19817
19884
19810
19635
19560
19541
19506
19476
19514
19564
19616
19521
19317
19209
19164
19153
19114
19142
19191
19240
19288
19280
19051
18899
18836
18806
18780
18801
18856
18913
18982
19049
19027
18790
18680
18661
18655
18672
18745
19526
19600
19690
19758
19722
19672
19687
19738
19760
19814
19855
19923
19997
20054
20074
19986
19931
19933
19930
19930
19968
20018
20035
20075
20146
20121
19822
19744
19710
19664
19653
19689
19690
19710
19777
19714
19493
19340
19271
19234
19168
19185
19197
19238
19270
19295
19059
18877
18785
18768
18731
18740
18786
18830
18883
19004
18854
18650
18544
18533
18872
18954
19034
19124
19161
18992
18907
18905
18928
18957
18993
19046
19129
19187
19272
19355
19269
19153
19138
19160
19185
19245
19308
19384
19441
19449
19324
19277
19278
19302
19323
19346
19412
19472
19550
19624
19522
19384
19338
19320
19323
19333
19366
19407
19468
19532
19588
19522
19220
19195
19169
19138
19179
19211
19264
19321
19379
19251
19074
19264
18960
18870
18859
18865
18869
18883
18953
19019
19102
19169
19088
18944
18893
18891
18914
18924
18971
19110
19177
19215
19055
18959
18928
18949
18952
18960
19030
19091
19160
19250
19300
19154
19069
19048
19050
19039
19055
19102
19173
19241
19315
19233
19099
19050
19040
19043
19062
19176
19235
19305
19201
19029
18955
18937
18936
18934
18993
19058
19123
18936
19211
19302
19216
19059
19016
19019
19017
19054
19114
19186
19247
19336
19421
19458
19302
19229
19249
19256
19293
19345
19420
19490
19571
19504
19376
19336
19358
19370
19369
19407
19458
19527
19597
19653
19564
19409
19363
19336
19293
19294
19316
19378
19421
19482
19542
19596
19296
19203
19190
19141
19133
19165
19201
19244
19301
19350
19356
19127
19008
18958
18999
18798
18677
18673
18664
18644
18694
18755
18819
18906
18981
18953
18764
18706
18709
18712
18757
18820
18892
18962
18884
18721
18655
18657
18669
18672
18713
18781
18854
18932
18977
18796
18687
18641
18646
18641
18671
18736
18805
18890
18949
18856
18738
18694
18715
18750
18818
18879
18953
19024
18916
18831
18808
18825
18845
18891
18950
19030
19114
19192
19681
19649
19491
19400
19369
19363
19379
19412
19469
19513
19580
19637
19690
19570
19298
19281
19235
19213
19251
19302
19344
19391
19450
19466
19285
19141
19105
19084
19064
19081
19109
19154
19195
19266
19195
18975
18889
18861
18843
18826
18861
18906
18951
19083
19000
18799
18690
18686
18657
18646
18696
18762
18857
18923
18990
19009
18808
18684
18648
18633
18739
18741
18759
18837
18888
18975
19055
19138
19041
18912
18864
18876
18891
18944
19019
19097
19146
19152
19000
18914
18928
18935
18947
19014
19055
19114
19189
19256
19138
19006
18952
18952
18946
18963
19011
19072
19165
19230
19313
19314
19125
19039
19029
19011
19044
19106
19179
19232
19311
19241
19079
19018
19036
19007
19032
19066
19115
19175
19240
19250
18749
18738
18765
18838
18992
19071
19134
18996
18868
18815
18814
18819
18841
18921
18971
19054
19123
19205
19105
18964
18938
18934
18945
18948
19023
19075
19145
19220
19185
19040
18969
18967
18976
19037
19101
19159
19239
19322
19264
19114
19020
19010
19014
19004
19029
19095
19157
19220
19291
19297
19122
19033
19000
19007
18982
19010
19073
19132
19185
19256
18803
18889
18675
18567
18555
18550
18549
18588
18651
18711
18795
18872
18936
18814
18632
18581
18589
18579
18625
18662
18736
18804
18898
18960
19025
18866
18748
18721
18733
18728
18811
18878
18965
19017
19097
18997
18871
18837
18851
18850
18867
18928
18988
19060
19153
19206
19034
18927
18879
18898
18871
18898
18962
19011
19091
19179
19231
19268
18974
18916
18602
18644
18724
18800
18870
18823
18614
18526
18534
18519
18535
18589
18654
18725
18812
18861
18720
18597
18568
18590
18589
18627
18762
18843
18918
18958
18782
18689
18680
18697
18721
18758
18834
18902
18992
19070
19153
19078
18948
18920
18937
18943
18979
19041
19109
19181
19262
19338
19348
19222
19168
19178
19201
19234
19294
19362
19438
19500
19399
19294
19374
19221
19063
18993
18964
18920
18899
18946
18979
19031
19083
19010
18777
18639
18597
18560
18542
18565
18636
18674
18820
18841
18597
18449
18388
18374
18350
18394
18447
18514
18577
18661
18738
18602
18438
18429
18423
18411
18451
18509
18588
18663
18743
18680
18515
18466
18476
18486
18524
18588
18749
18831
18925
18950
18780
18707
18694
18705
18725
18780
19248
19289
19335
19402
19463
19477
19300
19176
19111
19097
19048
19069
19128
19154
19206
19273
19269
19058
18937
18892
18829
18854
18881
18928
18980
19021
18820
18670
18588
18580
18553
18564
18625
18680
18748
18799
18861
18660
18500
18413
18422
18410
18432
18499
18584
18652
18743
18815
18710
18495
18491
18481
18501
18555
18643
18700
18776
18787
18616
18536
19035
19099
19154
19126
18967
18889
18890
18905
18910
18969
19032
19100
19179
19241
19015
18934
18943
18933
18963
18999
19062
19125
19207
19263
19271
19093
19001
18984
18995
18990
19041
19092
19148
19219
19244
19085
18984
18969
18967
18971
19008
19074
19144
19203
19151
19011
18964
18992
18985
19015
19071
19136
19211
19295
19345
19209
19111
19079
19098
19112
19536
19469
19302
19230
19214
19177
19177
19200
19252
19358
19373
19160
19013
18970
18925
18911
18919
18953
18997
19054
19114
19125
18895
18760
18691
18664
18629
18653
18715
18764
18832
18901
18961
18769
18625
18587
18581
18529
18544
18613
18634
18708
18618
18446
18495
18608
18566
18453
18373
18479
18569
18662
18541
18408
18392
18446
18412
18441
18478
18392
